Created as New Dataset,Nylon (6) GF
wavelength_sample,%Transmitance_sample
4000,99.66
3999,99.66
3998,99.67
3997,99.67
3996,99.68
3995,99.68
3994,99.68
3993,99.69
3992,99.69
3991,99.69
3990,99.69
3989,99.69
3988,99.69
3987,99.69
3986,99.69
3985,99.69
3984,99.69
3983,99.69
3982,99.69
3981,99.69
3980,99.7
3979,99.7
3978,99.7
3977,99.7
3976,99.7
3975,99.7
3974,99.71
3973,99.71
3972,99.71
3971,99.71
3970,99.71
3969,99.71
3968,99.71
3967,99.71
3966,99.71
3965,99.71
3964,99.72
3963,99.72
3962,99.72
3961,99.72
3960,99.72
3959,99.71
3958,99.71
3957,99.71
3956,99.71
3955,99.71
3954,99.71
3953,99.71
3952,99.71
3951,99.72
3950,99.72
3949,99.72
3948,99.72
3947,99.72
3946,99.73
3945,99.73
3944,99.73
3943,99.73
3942,99.73
3941,99.73
3940,99.73
3939,99.73
3938,99.73
3937,99.73
3936,99.73
3935,99.73
3934,99.73
3933,99.73
3932,99.73
3931,99.73
3930,99.73
3929,99.74
3928,99.74
3927,99.74
3926,99.75
3925,99.75
3924,99.75
3923,99.74
3922,99.74
3921,99.74
3920,99.74
3919,99.75
3918,99.75
3917,99.75
3916,99.75
3915,99.75
3914,99.75
3913,99.75
3912,99.75
3911,99.75
3910,99.75
3909,99.75
3908,99.75
3907,99.75
3906,99.75
3905,99.75
3904,99.76
3903,99.76
3902,99.76
3901,99.76
3900,99.76
3899,99.77
3898,99.77
3897,99.77
3896,99.77
3895,99.76
3894,99.77
3893,99.77
3892,99.77
3891,99.77
3890,99.78
3889,99.77
3888,99.77
3887,99.76
3886,99.76
3885,99.76
3884,99.76
3883,99.77
3882,99.77
3881,99.77
3880,99.77
3879,99.77
3878,99.77
3877,99.77
3876,99.77
3875,99.77
3874,99.77
3873,99.77
3872,99.77
3871,99.77
3870,99.77
3869,99.77
3868,99.77
3867,99.77
3866,99.77
3865,99.77
3864,99.77
3863,99.77
3862,99.77
3861,99.76
3860,99.76
3859,99.76
3858,99.76
3857,99.76
3856,99.76
3855,99.76
3854,99.76
3853,99.77
3852,99.78
3851,99.78
3850,99.77
3849,99.76
3848,99.75
3847,99.75
3846,99.75
3845,99.75
3844,99.76
3843,99.76
3842,99.76
3841,99.77
3840,99.77
3839,99.77
3838,99.77
3837,99.77
3836,99.77
3835,99.77
3834,99.77
3833,99.76
3832,99.76
3831,99.76
3830,99.76
3829,99.75
3828,99.75
3827,99.75
3826,99.75
3825,99.75
3824,99.75
3823,99.75
3822,99.75
3821,99.76
3820,99.76
3819,99.77
3818,99.77
3817,99.77
3816,99.77
3815,99.77
3814,99.77
3813,99.77
3812,99.76
3811,99.76
3810,99.76
3809,99.76
3808,99.76
3807,99.76
3806,99.76
3805,99.76
3804,99.76
3803,99.76
3802,99.76
3801,99.77
3800,99.77
3799,99.77
3798,99.77
3797,99.76
3796,99.75
3795,99.75
3794,99.75
3793,99.75
3792,99.75
3791,99.75
3790,99.75
3789,99.75
3788,99.75
3787,99.75
3786,99.75
3785,99.75
3784,99.75
3783,99.75
3782,99.74
3781,99.74
3780,99.74
3779,99.74
3778,99.74
3777,99.75
3776,99.75
3775,99.74
3774,99.74
3773,99.74
3772,99.73
3771,99.73
3770,99.74
3769,99.74
3768,99.75
3767,99.74
3766,99.74
3765,99.73
3764,99.73
3763,99.73
3762,99.73
3761,99.73
3760,99.73
3759,99.73
3758,99.73
3757,99.73
3756,99.73
3755,99.73
3754,99.73
3753,99.73
3752,99.74
3751,99.74
3750,99.74
3749,99.74
3748,99.74
3747,99.74
3746,99.74
3745,99.74
3744,99.74
3743,99.74
3742,99.74
3741,99.73
3740,99.72
3739,99.72
3738,99.72
3737,99.73
3736,99.73
3735,99.74
3734,99.74
3733,99.74
3732,99.74
3731,99.74
3730,99.74
3729,99.74
3728,99.73
3727,99.73
3726,99.73
3725,99.73
3724,99.73
3723,99.73
3722,99.72
3721,99.72
3720,99.72
3719,99.71
3718,99.71
3717,99.7
3716,99.7
3715,99.71
3714,99.71
3713,99.72
3712,99.72
3711,99.72
3710,99.72
3709,99.71
3708,99.71
3707,99.71
3706,99.71
3705,99.7
3704,99.7
3703,99.7
3702,99.69
3701,99.69
3700,99.69
3699,99.69
3698,99.69
3697,99.69
3696,99.69
3695,99.69
3694,99.68
3693,99.67
3692,99.67
3691,99.66
3690,99.66
3689,99.66
3688,99.66
3687,99.65
3686,99.63
3685,99.61
3684,99.59
3683,99.57
3682,99.56
3681,99.55
3680,99.54
3679,99.53
3678,99.53
3677,99.52
3676,99.51
3675,99.51
3674,99.51
3673,99.51
3672,99.5
3671,99.49
3670,99.49
3669,99.49
3668,99.49
3667,99.48
3666,99.48
3665,99.47
3664,99.46
3663,99.46
3662,99.46
3661,99.45
3660,99.44
3659,99.44
3658,99.43
3657,99.42
3656,99.41
3655,99.4
3654,99.4
3653,99.39
3652,99.38
3651,99.37
3650,99.37
3649,99.36
3648,99.36
3647,99.35
3646,99.34
3645,99.33
3644,99.32
3643,99.31
3642,99.3
3641,99.28
3640,99.27
3639,99.25
3638,99.24
3637,99.23
3636,99.22
3635,99.21
3634,99.2
3633,99.19
3632,99.18
3631,99.17
3630,99.15
3629,99.14
3628,99.13
3627,99.12
3626,99.1
3625,99.09
3624,99.07
3623,99.06
3622,99.04
3621,99.03
3620,99.01
3619,98.99
3618,98.98
3617,98.97
3616,98.96
3615,98.94
3614,98.93
3613,98.91
3612,98.89
3611,98.88
3610,98.86
3609,98.84
3608,98.82
3607,98.8
3606,98.78
3605,98.76
3604,98.75
3603,98.73
3602,98.71
3601,98.69
3600,98.67
3599,98.65
3598,98.63
3597,98.62
3596,98.6
3595,98.58
3594,98.56
3593,98.53
3592,98.52
3591,98.5
3590,98.48
3589,98.46
3588,98.43
3587,98.41
3586,98.38
3585,98.36
3584,98.34
3583,98.32
3582,98.29
3581,98.27
3580,98.24
3579,98.21
3578,98.19
3577,98.16
3576,98.14
3575,98.11
3574,98.09
3573,98.06
3572,98.04
3571,98.02
3570,97.99
3569,97.97
3568,97.93
3567,97.9
3566,97.86
3565,97.83
3564,97.8
3563,97.77
3562,97.74
3561,97.71
3560,97.68
3559,97.65
3558,97.62
3557,97.59
3556,97.56
3555,97.53
3554,97.49
3553,97.46
3552,97.43
3551,97.4
3550,97.37
3549,97.34
3548,97.31
3547,97.27
3546,97.23
3545,97.19
3544,97.15
3543,97.12
3542,97.09
3541,97.05
3540,97.02
3539,96.99
3538,96.95
3537,96.91
3536,96.87
3535,96.84
3534,96.8
3533,96.77
3532,96.73
3531,96.7
3530,96.66
3529,96.62
3528,96.59
3527,96.55
3526,96.52
3525,96.48
3524,96.44
3523,96.41
3522,96.37
3521,96.34
3520,96.31
3519,96.28
3518,96.24
3517,96.21
3516,96.17
3515,96.14
3514,96.1
3513,96.07
3512,96.04
3511,96.01
3510,95.98
3509,95.96
3508,95.93
3507,95.9
3506,95.87
3505,95.84
3504,95.81
3503,95.79
3502,95.76
3501,95.74
3500,95.71
3499,95.69
3498,95.67
3497,95.64
3496,95.62
3495,95.61
3494,95.59
3493,95.57
3492,95.56
3491,95.54
3490,95.53
3489,95.51
3488,95.49
3487,95.48
3486,95.46
3485,95.44
3484,95.43
3483,95.42
3482,95.4
3481,95.39
3480,95.38
3479,95.37
3478,95.37
3477,95.36
3476,95.35
3475,95.34
3474,95.33
3473,95.31
3472,95.3
3471,95.29
3470,95.28
3469,95.26
3468,95.25
3467,95.24
3466,95.22
3465,95.21
3464,95.2
3463,95.19
3462,95.18
3461,95.17
3460,95.16
3459,95.15
3458,95.13
3457,95.12
3456,95.11
3455,95.1
3454,95.08
3453,95.07
3452,95.06
3451,95.04
3450,95.03
3449,95.02
3448,95.01
3447,95.01
3446,95
3445,94.99
3444,94.98
3443,94.97
3442,94.95
3441,94.94
3440,94.93
3439,94.92
3438,94.9
3437,94.89
3436,94.88
3435,94.87
3434,94.85
3433,94.84
3432,94.83
3431,94.81
3430,94.8
3429,94.78
3428,94.76
3427,94.75
3426,94.73
3425,94.71
3424,94.7
3423,94.68
3422,94.66
3421,94.64
3420,94.63
3419,94.61
3418,94.59
3417,94.57
3416,94.54
3415,94.52
3414,94.5
3413,94.48
3412,94.46
3411,94.44
3410,94.42
3409,94.39
3408,94.37
3407,94.34
3406,94.32
3405,94.3
3404,94.27
3403,94.24
3402,94.21
3401,94.18
3400,94.15
3399,94.12
3398,94.09
3397,94.06
3396,94.03
3395,93.99
3394,93.95
3393,93.91
3392,93.87
3391,93.83
3390,93.78
3389,93.73
3388,93.68
3387,93.63
3386,93.58
3385,93.52
3384,93.47
3383,93.41
3382,93.36
3381,93.3
3380,93.23
3379,93.16
3378,93.09
3377,93.01
3376,92.93
3375,92.85
3374,92.77
3373,92.68
3372,92.59
3371,92.5
3370,92.4
3369,92.3
3368,92.19
3367,92.08
3366,91.96
3365,91.83
3364,91.71
3363,91.58
3362,91.44
3361,91.3
3360,91.15
3359,91
3358,90.83
3357,90.66
3356,90.49
3355,90.31
3354,90.12
3353,89.92
3352,89.72
3351,89.51
3350,89.3
3349,89.07
3348,88.83
3347,88.58
3346,88.32
3345,88.05
3344,87.77
3343,87.48
3342,87.18
3341,86.86
3340,86.54
3339,86.2
3338,85.84
3337,85.46
3336,85.06
3335,84.66
3334,84.24
3333,83.8
3332,83.34
3331,82.86
3330,82.37
3329,81.86
3328,81.34
3327,80.79
3326,80.23
3325,79.65
3324,79.07
3323,78.46
3322,77.85
3321,77.22
3320,76.58
3319,75.92
3318,75.25
3317,74.56
3316,73.85
3315,73.12
3314,72.37
3313,71.6
3312,70.82
3311,70.03
3310,69.24
3309,68.46
3308,67.69
3307,66.94
3306,66.24
3305,65.58
3304,64.98
3303,64.44
3302,63.99
3301,63.62
3300,63.35
3299,63.16
3298,63.06
3297,63.05
3296,63.1
3295,63.22
3294,63.4
3293,63.62
3292,63.88
3291,64.17
3290,64.48
3289,64.82
3288,65.18
3287,65.54
3286,65.92
3285,66.31
3284,66.7
3283,67.09
3282,67.48
3281,67.87
3280,68.25
3279,68.64
3278,69.03
3277,69.42
3276,69.81
3275,70.2
3274,70.59
3273,70.99
3272,71.38
3271,71.78
3270,72.18
3269,72.58
3268,72.99
3267,73.41
3266,73.83
3265,74.27
3264,74.7
3263,75.14
3262,75.57
3261,76
3260,76.43
3259,76.85
3258,77.28
3257,77.7
3256,78.1
3255,78.5
3254,78.89
3253,79.28
3252,79.66
3251,80.05
3250,80.43
3249,80.8
3248,81.16
3247,81.52
3246,81.86
3245,82.19
3244,82.51
3243,82.83
3242,83.15
3241,83.45
3240,83.75
3239,84.04
3238,84.33
3237,84.6
3236,84.87
3235,85.13
3234,85.37
3233,85.6
3232,85.81
3231,86.01
3230,86.21
3229,86.4
3228,86.58
3227,86.76
3226,86.92
3225,87.08
3224,87.23
3223,87.38
3222,87.51
3221,87.64
3220,87.76
3219,87.88
3218,87.99
3217,88.09
3216,88.19
3215,88.28
3214,88.37
3213,88.46
3212,88.54
3211,88.63
3210,88.71
3209,88.79
3208,88.87
3207,88.95
3206,89.03
3205,89.11
3204,89.2
3203,89.3
3202,89.39
3201,89.48
3200,89.58
3199,89.69
3198,89.8
3197,89.91
3196,90.02
3195,90.14
3194,90.26
3193,90.38
3192,90.5
3191,90.62
3190,90.75
3189,90.87
3188,90.99
3187,91.12
3186,91.25
3185,91.37
3184,91.5
3183,91.63
3182,91.75
3181,91.88
3180,92
3179,92.13
3178,92.26
3177,92.38
3176,92.5
3175,92.62
3174,92.74
3173,92.85
3172,92.97
3171,93.07
3170,93.18
3169,93.28
3168,93.37
3167,93.46
3166,93.55
3165,93.63
3164,93.71
3163,93.79
3162,93.86
3161,93.93
3160,93.99
3159,94.05
3158,94.11
3157,94.17
3156,94.23
3155,94.28
3154,94.33
3153,94.38
3152,94.41
3151,94.44
3150,94.47
3149,94.49
3148,94.51
3147,94.53
3146,94.54
3145,94.56
3144,94.57
3143,94.59
3142,94.6
3141,94.6
3140,94.6
3139,94.59
3138,94.58
3137,94.56
3136,94.53
3135,94.51
3134,94.48
3133,94.45
3132,94.43
3131,94.39
3130,94.35
3129,94.3
3128,94.24
3127,94.18
3126,94.12
3125,94.06
3124,93.99
3123,93.92
3122,93.85
3121,93.76
3120,93.67
3119,93.57
3118,93.46
3117,93.33
3116,93.2
3115,93.05
3114,92.9
3113,92.74
3112,92.59
3111,92.43
3110,92.27
3109,92.1
3108,91.92
3107,91.74
3106,91.55
3105,91.37
3104,91.19
3103,91.02
3102,90.85
3101,90.69
3100,90.53
3099,90.37
3098,90.22
3097,90.08
3096,89.95
3095,89.84
3094,89.75
3093,89.68
3092,89.62
3091,89.57
3090,89.52
3089,89.49
3088,89.48
3087,89.48
3086,89.49
3085,89.51
3084,89.54
3083,89.59
3082,89.65
3081,89.72
3080,89.79
3079,89.88
3078,89.96
3077,90.05
3076,90.14
3075,90.24
3074,90.35
3073,90.47
3072,90.6
3071,90.74
3070,90.88
3069,91.02
3068,91.17
3067,91.31
3066,91.45
3065,91.59
3064,91.73
3063,91.88
3062,92.03
3061,92.19
3060,92.35
3059,92.51
3058,92.68
3057,92.85
3056,93.02
3055,93.18
3054,93.35
3053,93.51
3052,93.68
3051,93.84
3050,93.99
3049,94.15
3048,94.3
3047,94.45
3046,94.6
3045,94.74
3044,94.87
3043,94.99
3042,95.11
3041,95.22
3040,95.31
3039,95.41
3038,95.5
3037,95.6
3036,95.69
3035,95.78
3034,95.85
3033,95.91
3032,95.97
3031,96.03
3030,96.08
3029,96.13
3028,96.18
3027,96.23
3026,96.27
3025,96.31
3024,96.34
3023,96.37
3022,96.4
3021,96.43
3020,96.46
3019,96.49
3018,96.52
3017,96.54
3016,96.57
3015,96.59
3014,96.6
3013,96.61
3012,96.61
3011,96.61
3010,96.61
3009,96.61
3008,96.61
3007,96.61
3006,96.61
3005,96.61
3004,96.6
3003,96.58
3002,96.56
3001,96.54
3000,96.53
2999,96.5
2998,96.47
2997,96.43
2996,96.39
2995,96.34
2994,96.28
2993,96.22
2992,96.15
2991,96.07
2990,95.98
2989,95.88
2988,95.77
2987,95.65
2986,95.51
2985,95.35
2984,95.18
2983,95
2982,94.79
2981,94.58
2980,94.34
2979,94.09
2978,93.81
2977,93.51
2976,93.19
2975,92.84
2974,92.46
2973,92.06
2972,91.63
2971,91.18
2970,90.7
2969,90.2
2968,89.69
2967,89.17
2966,88.65
2965,88.14
2964,87.63
2963,87.14
2962,86.65
2961,86.15
2960,85.66
2959,85.14
2958,84.59
2957,84.01
2956,83.38
2955,82.7
2954,81.96
2953,81.17
2952,80.34
2951,79.46
2950,78.57
2949,77.67
2948,76.79
2947,75.94
2946,75.14
2945,74.39
2944,73.68
2943,73.02
2942,72.38
2941,71.77
2940,71.19
2939,70.63
2938,70.1
2937,69.62
2936,69.2
2935,68.84
2934,68.56
2933,68.36
2932,68.24
2931,68.19
2930,68.19
2929,68.25
2928,68.35
2927,68.48
2926,68.66
2925,68.88
2924,69.14
2923,69.46
2922,69.84
2921,70.28
2920,70.81
2919,71.41
2918,72.08
2917,72.82
2916,73.61
2915,74.45
2914,75.29
2913,76.11
2912,76.9
2911,77.63
2910,78.31
2909,78.94
2908,79.53
2907,80.07
2906,80.58
2905,81.05
2904,81.48
2903,81.88
2902,82.25
2901,82.6
2900,82.93
2899,83.26
2898,83.61
2897,83.96
2896,84.33
2895,84.69
2894,85.05
2893,85.39
2892,85.7
2891,85.97
2890,86.2
2889,86.39
2888,86.52
2887,86.61
2886,86.64
2885,86.61
2884,86.52
2883,86.37
2882,86.15
2881,85.86
2880,85.5
2879,85.09
2878,84.63
2877,84.13
2876,83.6
2875,83.05
2874,82.49
2873,81.94
2872,81.41
2871,80.9
2870,80.42
2869,79.94
2868,79.49
2867,79.03
2866,78.59
2865,78.14
2864,77.71
2863,77.31
2862,76.94
2861,76.64
2860,76.4
2859,76.25
2858,76.2
2857,76.27
2856,76.47
2855,76.8
2854,77.25
2853,77.83
2852,78.54
2851,79.38
2850,80.36
2849,81.47
2848,82.69
2847,83.96
2846,85.24
2845,86.48
2844,87.64
2843,88.69
2842,89.62
2841,90.42
2840,91.09
2839,91.65
2838,92.13
2837,92.53
2836,92.86
2835,93.15
2834,93.4
2833,93.61
2832,93.81
2831,93.98
2830,94.13
2829,94.27
2828,94.39
2827,94.51
2826,94.62
2825,94.72
2824,94.82
2823,94.91
2822,95
2821,95.09
2820,95.19
2819,95.28
2818,95.38
2817,95.47
2816,95.56
2815,95.65
2814,95.74
2813,95.83
2812,95.91
2811,95.99
2810,96.06
2809,96.13
2808,96.2
2807,96.26
2806,96.31
2805,96.37
2804,96.42
2803,96.46
2802,96.51
2801,96.55
2800,96.6
2799,96.64
2798,96.68
2797,96.72
2796,96.77
2795,96.81
2794,96.85
2793,96.89
2792,96.93
2791,96.97
2790,97.01
2789,97.05
2788,97.09
2787,97.12
2786,97.16
2785,97.2
2784,97.23
2783,97.27
2782,97.3
2781,97.33
2780,97.36
2779,97.4
2778,97.43
2777,97.46
2776,97.49
2775,97.52
2774,97.55
2773,97.58
2772,97.61
2771,97.63
2770,97.66
2769,97.68
2768,97.7
2767,97.73
2766,97.75
2765,97.77
2764,97.79
2763,97.81
2762,97.82
2761,97.83
2760,97.85
2759,97.86
2758,97.87
2757,97.88
2756,97.89
2755,97.9
2754,97.91
2753,97.92
2752,97.92
2751,97.92
2750,97.93
2749,97.93
2748,97.94
2747,97.95
2746,97.96
2745,97.96
2744,97.97
2743,97.98
2742,97.99
2741,98
2740,98.01
2739,98.02
2738,98.04
2737,98.05
2736,98.07
2735,98.08
2734,98.1
2733,98.12
2732,98.13
2731,98.15
2730,98.17
2729,98.19
2728,98.21
2727,98.22
2726,98.24
2725,98.26
2724,98.28
2723,98.29
2722,98.31
2721,98.33
2720,98.35
2719,98.36
2718,98.38
2717,98.39
2716,98.41
2715,98.42
2714,98.44
2713,98.45
2712,98.46
2711,98.47
2710,98.48
2709,98.49
2708,98.49
2707,98.5
2706,98.51
2705,98.51
2704,98.51
2703,98.52
2702,98.52
2701,98.53
2700,98.54
2699,98.55
2698,98.56
2697,98.57
2696,98.57
2695,98.58
2694,98.59
2693,98.59
2692,98.6
2691,98.61
2690,98.61
2689,98.62
2688,98.62
2687,98.63
2686,98.64
2685,98.64
2684,98.65
2683,98.66
2682,98.66
2681,98.67
2680,98.67
2679,98.68
2678,98.68
2677,98.69
2676,98.69
2675,98.7
2674,98.7
2673,98.71
2672,98.71
2671,98.72
2670,98.72
2669,98.73
2668,98.73
2667,98.73
2666,98.73
2665,98.73
2664,98.72
2663,98.72
2662,98.71
2661,98.71
2660,98.7
2659,98.7
2658,98.7
2657,98.7
2656,98.7
2655,98.7
2654,98.7
2653,98.7
2652,98.7
2651,98.71
2650,98.71
2649,98.71
2648,98.72
2647,98.72
2646,98.72
2645,98.73
2644,98.73
2643,98.74
2642,98.74
2641,98.74
2640,98.74
2639,98.75
2638,98.75
2637,98.75
2636,98.75
2635,98.76
2634,98.76
2633,98.76
2632,98.77
2631,98.77
2630,98.77
2629,98.78
2628,98.78
2627,98.79
2626,98.79
2625,98.8
2624,98.8
2623,98.81
2622,98.81
2621,98.81
2620,98.82
2619,98.82
2618,98.83
2617,98.83
2616,98.84
2615,98.85
2614,98.86
2613,98.86
2612,98.87
2611,98.87
2610,98.88
2609,98.88
2608,98.89
2607,98.9
2606,98.91
2605,98.91
2604,98.91
2603,98.92
2602,98.92
2601,98.92
2600,98.93
2599,98.93
2598,98.94
2597,98.95
2596,98.95
2595,98.95
2594,98.95
2593,98.95
2592,98.95
2591,98.96
2590,98.96
2589,98.96
2588,98.96
2587,98.97
2586,98.97
2585,98.97
2584,98.97
2583,98.97
2582,98.97
2581,98.97
2580,98.98
2579,98.98
2578,98.99
2577,98.99
2576,99
2575,99
2574,99
2573,99
2572,99.01
2571,99.01
2570,99.02
2569,99.02
2568,99.02
2567,99.02
2566,99.02
2565,99.02
2564,99.02
2563,99.02
2562,99.03
2561,99.03
2560,99.03
2559,99.03
2558,99.03
2557,99.03
2556,99.03
2555,99.03
2554,99.03
2553,99.03
2552,99.03
2551,99.04
2550,99.04
2549,99.04
2548,99.05
2547,99.06
2546,99.06
2545,99.06
2544,99.07
2543,99.08
2542,99.08
2541,99.08
2540,99.09
2539,99.09
2538,99.1
2537,99.11
2536,99.11
2535,99.12
2534,99.12
2533,99.13
2532,99.13
2531,99.14
2530,99.15
2529,99.15
2528,99.16
2527,99.17
2526,99.17
2525,99.18
2524,99.19
2523,99.2
2522,99.2
2521,99.2
2520,99.2
2519,99.21
2518,99.22
2517,99.22
2516,99.22
2515,99.22
2514,99.23
2513,99.23
2512,99.24
2511,99.25
2510,99.25
2509,99.25
2508,99.25
2507,99.25
2506,99.26
2505,99.26
2504,99.27
2503,99.27
2502,99.27
2501,99.27
2500,99.27
2499,99.28
2498,99.28
2497,99.27
2496,99.27
2495,99.27
2494,99.27
2493,99.27
2492,99.27
2491,99.27
2490,99.27
2489,99.27
2488,99.27
2487,99.28
2486,99.28
2485,99.27
2484,99.27
2483,99.27
2482,99.27
2481,99.27
2480,99.27
2479,99.27
2478,99.27
2477,99.26
2476,99.26
2475,99.27
2474,99.27
2473,99.28
2472,99.28
2471,99.28
2470,99.28
2469,99.28
2468,99.28
2467,99.28
2466,99.29
2465,99.29
2464,99.29
2463,99.29
2462,99.29
2461,99.29
2460,99.3
2459,99.3
2458,99.29
2457,99.29
2456,99.29
2455,99.29
2454,99.29
2453,99.29
2452,99.29
2451,99.29
2450,99.29
2449,99.29
2448,99.3
2447,99.3
2446,99.31
2445,99.31
2444,99.31
2443,99.32
2442,99.33
2441,99.33
2440,99.34
2439,99.34
2438,99.34
2437,99.35
2436,99.35
2435,99.35
2434,99.35
2433,99.35
2432,99.35
2431,99.36
2430,99.37
2429,99.37
2428,99.37
2427,99.37
2426,99.37
2425,99.37
2424,99.38
2423,99.38
2422,99.38
2421,99.37
2420,99.37
2419,99.38
2418,99.38
2417,99.38
2416,99.38
2415,99.38
2414,99.38
2413,99.38
2412,99.38
2411,99.37
2410,99.37
2409,99.37
2408,99.37
2407,99.39
2406,99.4
2405,99.4
2404,99.41
2403,99.41
2402,99.41
2401,99.41
2400,99.41
2399,99.41
2398,99.41
2397,99.41
2396,99.41
2395,99.41
2394,99.41
2393,99.41
2392,99.41
2391,99.41
2390,99.41
2389,99.41
2388,99.41
2387,99.41
2386,99.42
2385,99.42
2384,99.43
2383,99.44
2382,99.45
2381,99.46
2380,99.47
2379,99.49
2378,99.51
2377,99.53
2376,99.55
2375,99.57
2374,99.59
2373,99.59
2372,99.6
2371,99.6
2370,99.6
2369,99.59
2368,99.58
2367,99.56
2366,99.54
2365,99.53
2364,99.53
2363,99.54
2362,99.55
2361,99.54
2360,99.53
2359,99.53
2358,99.52
2357,99.52
2356,99.52
2355,99.54
2354,99.54
2353,99.54
2352,99.53
2351,99.53
2350,99.52
2349,99.51
2348,99.5
2347,99.51
2346,99.5
2345,99.5
2344,99.48
2343,99.47
2342,99.47
2341,99.46
2340,99.46
2339,99.45
2338,99.45
2337,99.44
2336,99.43
2335,99.43
2334,99.44
2333,99.43
2332,99.43
2331,99.43
2330,99.43
2329,99.42
2328,99.41
2327,99.38
2326,99.33
2325,99.27
2324,99.23
2323,99.22
2322,99.24
2321,99.26
2320,99.28
2319,99.3
2318,99.31
2317,99.31
2316,99.3
2315,99.3
2314,99.3
2313,99.3
2312,99.3
2311,99.3
2310,99.3
2309,99.29
2308,99.28
2307,99.27
2306,99.27
2305,99.26
2304,99.26
2303,99.26
2302,99.25
2301,99.24
2300,99.23
2299,99.23
2298,99.22
2297,99.21
2296,99.2
2295,99.2
2294,99.19
2293,99.17
2292,99.16
2291,99.14
2290,99.13
2289,99.11
2288,99.1
2287,99.09
2286,99.09
2285,99.08
2284,99.08
2283,99.09
2282,99.1
2281,99.11
2280,99.12
2279,99.13
2278,99.13
2277,99.13
2276,99.13
2275,99.13
2274,99.13
2273,99.13
2272,99.14
2271,99.15
2270,99.16
2269,99.16
2268,99.16
2267,99.16
2266,99.17
2265,99.16
2264,99.16
2263,99.16
2262,99.17
2261,99.16
2260,99.16
2259,99.15
2258,99.15
2257,99.16
2256,99.17
2255,99.19
2254,99.2
2253,99.2
2252,99.19
2251,99.19
2250,99.19
2249,99.2
2248,99.2
2247,99.21
2246,99.2
2245,99.19
2244,99.18
2243,99.17
2242,99.16
2241,99.16
2240,99.15
2239,99.16
2238,99.16
2237,99.15
2236,99.15
2235,99.15
2234,99.15
2233,99.15
2232,99.15
2231,99.15
2230,99.15
2229,99.14
2228,99.13
2227,99.13
2226,99.13
2225,99.12
2224,99.12
2223,99.12
2222,99.1
2221,99.08
2220,99.06
2219,99.06
2218,99.05
2217,99.06
2216,99.07
2215,99.09
2214,99.09
2213,99.08
2212,99.06
2211,99.05
2210,99.03
2209,99.02
2208,99.02
2207,99.03
2206,99.03
2205,99.02
2204,99.01
2203,99
2202,99
2201,98.99
2200,98.98
2199,98.98
2198,98.97
2197,98.94
2196,98.93
2195,98.92
2194,98.92
2193,98.92
2192,98.91
2191,98.92
2190,98.91
2189,98.9
2188,98.89
2187,98.88
2186,98.88
2185,98.87
2184,98.87
2183,98.89
2182,98.92
2181,98.95
2180,98.96
2179,98.96
2178,98.95
2177,98.94
2176,98.96
2175,98.99
2174,99
2173,98.98
2172,98.95
2171,98.91
2170,98.86
2169,98.81
2168,98.78
2167,98.77
2166,98.76
2165,98.74
2164,98.72
2163,98.7
2162,98.68
2161,98.69
2160,98.79
2159,98.99
2158,99.2
2157,99.33
2156,99.38
2155,99.37
2154,99.33
2153,99.29
2152,99.26
2151,99.24
2150,99.22
2149,99.2
2148,99.19
2147,99.19
2146,99.2
2145,99.21
2144,99.21
2143,99.23
2142,99.24
2141,99.24
2140,99.25
2139,99.25
2138,99.26
2137,99.27
2136,99.29
2135,99.32
2134,99.35
2133,99.35
2132,99.34
2131,99.34
2130,99.33
2129,99.31
2128,99.29
2127,99.27
2126,99.25
2125,99.23
2124,99.22
2123,99.21
2122,99.2
2121,99.18
2120,99.17
2119,99.17
2118,99.16
2117,99.14
2116,99.13
2115,99.12
2114,99.11
2113,99.1
2112,99.09
2111,99.09
2110,99.1
2109,99.1
2108,99.11
2107,99.12
2106,99.13
2105,99.14
2104,99.14
2103,99.14
2102,99.13
2101,99.12
2100,99.11
2099,99.12
2098,99.13
2097,99.14
2096,99.16
2095,99.19
2094,99.22
2093,99.22
2092,99.2
2091,99.18
2090,99.16
2089,99.14
2088,99.12
2087,99.12
2086,99.12
2085,99.12
2084,99.11
2083,99.1
2082,99.1
2081,99.08
2080,99.07
2079,99.07
2078,99.06
2077,99.05
2076,99.05
2075,99.07
2074,99.08
2073,99.08
2072,99.08
2071,99.08
2070,99.08
2069,99.07
2068,99.07
2067,99.09
2066,99.09
2065,99.09
2064,99.1
2063,99.11
2062,99.11
2061,99.11
2060,99.11
2059,99.12
2058,99.11
2057,99.1
2056,99.09
2055,99.09
2054,99.08
2053,99.04
2052,98.98
2051,98.94
2050,98.92
2049,98.93
2048,98.97
2047,99.01
2046,99.04
2045,99.05
2044,99.05
2043,99.05
2042,99.05
2041,99.03
2040,99.01
2039,99.01
2038,99.01
2037,99.01
2036,99.01
2035,99.04
2034,99.06
2033,99.07
2032,99.09
2031,99.12
2030,99.14
2029,99.14
2028,99.15
2027,99.17
2026,99.19
2025,99.19
2024,99.19
2023,99.19
2022,99.18
2021,99.16
2020,99.15
2019,99.16
2018,99.17
2017,99.16
2016,99.15
2015,99.16
2014,99.16
2013,99.15
2012,99.14
2011,99.14
2010,99.16
2009,99.17
2008,99.2
2007,99.25
2006,99.3
2005,99.31
2004,99.3
2003,99.3
2002,99.29
2001,99.26
2000,99.25
1999,99.24
1998,99.23
1997,99.2
1996,99.18
1995,99.17
1994,99.17
1993,99.17
1992,99.16
1991,99.17
1990,99.17
1989,99.15
1988,99.14
1987,99.14
1986,99.13
1985,99.1
1984,99.07
1983,99.06
1982,99.03
1981,98.98
1980,98.96
1979,98.99
1978,99.06
1977,99.14
1976,99.21
1975,99.28
1974,99.31
1973,99.31
1972,99.31
1971,99.32
1970,99.33
1969,99.31
1968,99.3
1967,99.3
1966,99.31
1965,99.3
1964,99.3
1963,99.31
1962,99.32
1961,99.34
1960,99.36
1959,99.4
1958,99.42
1957,99.43
1956,99.43
1955,99.43
1954,99.43
1953,99.42
1952,99.4
1951,99.39
1950,99.39
1949,99.38
1948,99.38
1947,99.39
1946,99.39
1945,99.38
1944,99.37
1943,99.38
1942,99.4
1941,99.41
1940,99.41
1939,99.41
1938,99.41
1937,99.4
1936,99.41
1935,99.41
1934,99.42
1933,99.41
1932,99.41
1931,99.42
1930,99.43
1929,99.43
1928,99.42
1927,99.43
1926,99.43
1925,99.42
1924,99.41
1923,99.41
1922,99.41
1921,99.41
1920,99.39
1919,99.38
1918,99.38
1917,99.38
1916,99.38
1915,99.39
1914,99.39
1913,99.37
1912,99.36
1911,99.37
1910,99.37
1909,99.36
1908,99.37
1907,99.38
1906,99.39
1905,99.38
1904,99.38
1903,99.38
1902,99.37
1901,99.35
1900,99.34
1899,99.35
1898,99.35
1897,99.34
1896,99.34
1895,99.35
1894,99.36
1893,99.36
1892,99.35
1891,99.34
1890,99.34
1889,99.35
1888,99.36
1887,99.38
1886,99.38
1885,99.38
1884,99.37
1883,99.37
1882,99.37
1881,99.36
1880,99.36
1879,99.36
1878,99.37
1877,99.37
1876,99.37
1875,99.37
1874,99.37
1873,99.36
1872,99.34
1871,99.33
1870,99.33
1869,99.34
1868,99.35
1867,99.37
1866,99.38
1865,99.37
1864,99.37
1863,99.37
1862,99.37
1861,99.37
1860,99.38
1859,99.38
1858,99.39
1857,99.37
1856,99.37
1855,99.37
1854,99.36
1853,99.35
1852,99.34
1851,99.34
1850,99.33
1849,99.32
1848,99.3
1847,99.3
1846,99.3
1845,99.3
1844,99.32
1843,99.34
1842,99.35
1841,99.33
1840,99.31
1839,99.31
1838,99.31
1837,99.31
1836,99.3
1835,99.31
1834,99.31
1833,99.3
1832,99.29
1831,99.28
1830,99.28
1829,99.28
1828,99.28
1827,99.27
1826,99.25
1825,99.24
1824,99.24
1823,99.26
1822,99.26
1821,99.26
1820,99.26
1819,99.27
1818,99.29
1817,99.29
1816,99.29
1815,99.28
1814,99.27
1813,99.24
1812,99.22
1811,99.22
1810,99.22
1809,99.21
1808,99.2
1807,99.2
1806,99.2
1805,99.18
1804,99.15
1803,99.12
1802,99.12
1801,99.12
1800,99.13
1799,99.14
1798,99.14
1797,99.12
1796,99.11
1795,99.1
1794,99.1
1793,99.09
1792,99.08
1791,99.09
1790,99.08
1789,99.07
1788,99.04
1787,99.02
1786,99.01
1785,99
1784,98.99
1783,98.98
1782,98.98
1781,98.96
1780,98.95
1779,98.95
1778,98.95
1777,98.93
1776,98.92
1775,98.92
1774,98.93
1773,98.93
1772,98.92
1771,98.9
1770,98.87
1769,98.81
1768,98.77
1767,98.76
1766,98.75
1765,98.72
1764,98.68
1763,98.65
1762,98.62
1761,98.6
1760,98.56
1759,98.52
1758,98.47
1757,98.43
1756,98.41
1755,98.4
1754,98.38
1753,98.33
1752,98.28
1751,98.24
1750,98.21
1749,98.17
1748,98.12
1747,98.09
1746,98.06
1745,98.01
1744,97.97
1743,97.95
1742,97.95
1741,97.93
1740,97.91
1739,97.9
1738,97.89
1737,97.88
1736,97.85
1735,97.84
1734,97.85
1733,97.84
1732,97.79
1731,97.74
1730,97.7
1729,97.68
1728,97.66
1727,97.65
1726,97.63
1725,97.6
1724,97.57
1723,97.56
1722,97.55
1721,97.54
1720,97.52
1719,97.51
1718,97.52
1717,97.52
1716,97.47
1715,97.42
1714,97.39
1713,97.34
1712,97.3
1711,97.26
1710,97.23
1709,97.19
1708,97.13
1707,97.08
1706,97.04
1705,96.99
1704,96.95
1703,96.92
1702,96.89
1701,96.83
1700,96.74
1699,96.69
1698,96.63
1697,96.51
1696,96.33
1695,96.18
1694,96.03
1693,95.85
1692,95.64
1691,95.41
1690,95.17
1689,94.91
1688,94.67
1687,94.45
1686,94.17
1685,93.63
1684,92.9
1683,92.28
1682,91.76
1681,91.2
1680,90.58
1679,89.99
1678,89.43
1677,88.77
1676,87.89
1675,86.92
1674,86.05
1673,85.24
1672,84.31
1671,83.12
1670,81.62
1669,79.94
1668,78.38
1667,77.07
1666,75.91
1665,74.67
1664,73.19
1663,71.54
1662,69.99
1661,68.63
1660,67.36
1659,66.16
1658,65.05
1657,64.04
1656,63.06
1655,61.84
1654,59.78
1653,56.97
1652,54.79
1651,53.45
1650,52.34
1649,50.86
1648,48.53
1647,45.42
1646,42.36
1645,39.78
1644,37.43
1643,35.07
1642,32.63
1641,30.16
1640,27.82
1639,25.8
1638,24.08
1637,22.5
1636,21.15
1635,20.49
1634,20.61
1633,21.21
1632,22.08
1631,23.2
1630,24.58
1629,26.17
1628,27.85
1627,29.46
1626,30.99
1625,32.61
1624,34.49
1623,36.6
1622,38.66
1621,40.49
1620,42.22
1619,44.05
1618,46.24
1617,48.8
1616,51.28
1615,53.29
1614,54.9
1613,56.4
1612,57.97
1611,59.58
1610,61.16
1609,62.73
1608,64.32
1607,65.86
1606,67.27
1605,68.6
1604,69.92
1603,71.17
1602,72.26
1601,73.23
1600,74.14
1599,74.94
1598,75.59
1597,76.15
1596,76.68
1595,77.13
1594,77.43
1593,77.64
1592,77.82
1591,77.91
1590,77.86
1589,77.71
1588,77.54
1587,77.27
1586,76.86
1585,76.33
1584,75.75
1583,75.07
1582,74.23
1581,73.3
1580,72.42
1579,71.51
1578,70.33
1577,68.68
1576,66.76
1575,65.03
1574,63.62
1573,62.42
1572,61.22
1571,59.77
1570,57.99
1569,56.25
1568,54.89
1567,53.78
1566,52.66
1565,51.47
1564,50.4
1563,49.57
1562,48.94
1561,48.23
1560,47.03
1559,45.23
1558,43.81
1557,43.02
1556,42.34
1555,41.51
1554,40.55
1553,39.58
1552,38.61
1551,37.53
1550,36.31
1549,35.13
1548,34.15
1547,33.31
1546,32.48
1545,31.65
1544,30.94
1543,30.44
1542,30.15
1541,30.03
1540,30.16
1539,30.56
1538,31.1
1537,31.71
1536,32.42
1535,33.37
1534,34.71
1533,36.25
1532,37.67
1531,38.96
1530,40.26
1529,41.66
1528,43.18
1527,44.79
1526,46.42
1525,47.91
1524,49.25
1523,50.68
1522,52.37
1521,54.09
1520,55.47
1519,56.62
1518,57.85
1517,59.22
1516,60.54
1515,61.71
1514,62.79
1513,63.83
1512,64.82
1511,65.77
1510,66.67
1509,67.55
1508,68.54
1507,69.78
1506,70.98
1505,71.81
1504,72.38
1503,72.91
1502,73.51
1501,74.13
1500,74.72
1499,75.3
1498,75.94
1497,76.56
1496,77.08
1495,77.53
1494,77.94
1493,78.28
1492,78.56
1491,78.85
1490,79.18
1489,79.41
1488,79.5
1487,79.52
1486,79.46
1485,79.26
1484,78.86
1483,78.3
1482,77.57
1481,76.69
1480,75.8
1479,74.99
1478,74.27
1477,73.6
1476,73.04
1475,72.68
1474,72.46
1473,72.22
1472,71.84
1471,71.34
1470,70.71
1469,69.88
1468,68.84
1467,67.58
1466,66.09
1465,64.49
1464,63.2
1463,62.51
1462,62.37
1461,62.61
1460,63.15
1459,63.96
1458,64.98
1457,65.96
1456,66.63
1455,67.08
1454,67.46
1453,67.82
1452,68.18
1451,68.52
1450,68.78
1449,68.9
1448,68.86
1447,68.69
1446,68.44
1445,68.09
1444,67.66
1443,67.2
1442,66.75
1441,66.35
1440,66
1439,65.73
1438,65.5
1437,65.3
1436,65.21
1435,65.32
1434,65.59
1433,65.96
1432,66.45
1431,67.06
1430,67.76
1429,68.43
1428,68.99
1427,69.43
1426,69.75
1425,69.92
1424,69.96
1423,69.91
1422,69.83
1421,69.72
1420,69.58
1419,69.53
1418,69.68
1417,70.04
1416,70.57
1415,71.25
1414,72.06
1413,72.97
1412,73.92
1411,74.88
1410,75.8
1409,76.63
1408,77.36
1407,78
1406,78.57
1405,79.1
1404,79.54
1403,79.88
1402,80.14
1401,80.35
1400,80.51
1399,80.61
1398,80.67
1397,80.68
1396,80.64
1395,80.51
1394,80.33
1393,80.14
1392,79.92
1391,79.63
1390,79.3
1389,78.9
1388,78.4
1387,77.82
1386,77.25
1385,76.7
1384,76.12
1383,75.5
1382,74.85
1381,74.21
1380,73.57
1379,72.95
1378,72.39
1377,71.91
1376,71.45
1375,70.99
1374,70.57
1373,70.24
1372,69.98
1371,69.78
1370,69.63
1369,69.55
1368,69.53
1367,69.59
1366,69.73
1365,69.91
1364,70.13
1363,70.38
1362,70.68
1361,71
1360,71.31
1359,71.64
1358,71.99
1357,72.36
1356,72.74
1355,73.13
1354,73.54
1353,73.95
1352,74.33
1351,74.7
1350,75.05
1349,75.4
1348,75.72
1347,76.02
1346,76.31
1345,76.6
1344,76.86
1343,77.1
1342,77.31
1341,77.49
1340,77.62
1339,77.72
1338,77.8
1337,77.88
1336,77.96
1335,78.06
1334,78.19
1333,78.34
1332,78.53
1331,78.73
1330,78.95
1329,79.15
1328,79.31
1327,79.42
1326,79.46
1325,79.45
1324,79.38
1323,79.26
1322,79.13
1321,78.99
1320,78.83
1319,78.65
1318,78.44
1317,78.21
1316,77.93
1315,77.61
1314,77.27
1313,76.92
1312,76.61
1311,76.34
1310,76.14
1309,75.99
1308,75.87
1307,75.77
1306,75.68
1305,75.58
1304,75.46
1303,75.33
1302,75.23
1301,75.17
1300,75.17
1299,75.23
1298,75.35
1297,75.52
1296,75.7
1295,75.89
1294,76.07
1293,76.23
1292,76.34
1291,76.38
1290,76.33
1289,76.17
1288,75.88
1287,75.49
1286,75.01
1285,74.47
1284,73.88
1283,73.28
1282,72.71
1281,72.19
1280,71.74
1279,71.4
1278,71.18
1277,71.05
1276,70.96
1275,70.89
1274,70.79
1273,70.6
1272,70.3
1271,69.9
1270,69.42
1269,68.89
1268,68.32
1267,67.78
1266,67.31
1265,66.96
1264,66.74
1263,66.71
1262,66.86
1261,67.2
1260,67.67
1259,68.27
1258,68.95
1257,69.7
1256,70.47
1255,71.24
1254,72
1253,72.72
1252,73.37
1251,73.95
1250,74.44
1249,74.85
1248,75.17
1247,75.39
1246,75.53
1245,75.58
1244,75.53
1243,75.39
1242,75.17
1241,74.85
1240,74.44
1239,73.94
1238,73.39
1237,72.87
1236,72.48
1235,72.36
1234,72.6
1233,73.2
1232,74.12
1231,75.24
1230,76.49
1229,77.76
1228,78.97
1227,80.07
1226,81.01
1225,81.77
1224,82.31
1223,82.6
1222,82.62
1221,82.38
1220,81.9
1219,81.25
1218,80.55
1217,79.87
1216,79.27
1215,78.78
1214,78.42
1213,78.2
1212,78.08
1211,78.04
1210,78.02
1209,77.97
1208,77.81
1207,77.53
1206,77.15
1205,76.73
1204,76.38
1203,76.22
1202,76.35
1201,76.76
1200,77.4
1199,78.16
1198,78.96
1197,79.73
1196,80.42
1195,81.04
1194,81.62
1193,82.17
1192,82.7
1191,83.2
1190,83.68
1189,84.12
1188,84.49
1187,84.78
1186,84.97
1185,85.05
1184,84.98
1183,84.74
1182,84.31
1181,83.69
1180,82.85
1179,81.78
1178,80.5
1177,79.04
1176,77.45
1175,75.78
1174,74.11
1173,72.54
1172,71.17
1171,70.11
1170,69.49
1169,69.38
1168,69.81
1167,70.73
1166,72.04
1165,73.56
1164,75.15
1163,76.71
1162,78.18
1161,79.51
1160,80.71
1159,81.78
1158,82.74
1157,83.61
1156,84.39
1155,85.09
1154,85.73
1153,86.32
1152,86.86
1151,87.36
1150,87.82
1149,88.26
1148,88.67
1147,89.05
1146,89.4
1145,89.73
1144,90.04
1143,90.3
1142,90.54
1141,90.75
1140,90.93
1139,91.07
1138,91.18
1137,91.26
1136,91.31
1135,91.31
1134,91.26
1133,91.14
1132,90.93
1131,90.61
1130,90.16
1129,89.6
1128,88.91
1127,88.09
1126,87.2
1125,86.29
1124,85.43
1123,84.69
1122,84.12
1121,83.76
1120,83.58
1119,83.57
1118,83.68
1117,83.88
1116,84.13
1115,84.43
1114,84.76
1113,85.11
1112,85.47
1111,85.84
1110,86.22
1109,86.61
1108,87
1107,87.38
1106,87.76
1105,88.13
1104,88.47
1103,88.77
1102,89.04
1101,89.27
1100,89.45
1099,89.59
1098,89.69
1097,89.76
1096,89.81
1095,89.84
1094,89.84
1093,89.84
1092,89.81
1091,89.74
1090,89.65
1089,89.53
1088,89.38
1087,89.21
1086,89.02
1085,88.84
1084,88.64
1083,88.44
1082,88.24
1081,88.06
1080,87.9
1079,87.77
1078,87.67
1077,87.6
1076,87.54
1075,87.49
1074,87.46
1073,87.45
1072,87.48
1071,87.54
1070,87.63
1069,87.77
1068,87.94
1067,88.13
1066,88.34
1065,88.58
1064,88.83
1063,89.07
1062,89.31
1061,89.54
1060,89.76
1059,89.95
1058,90.13
1057,90.31
1056,90.49
1055,90.66
1054,90.83
1053,91.01
1052,91.19
1051,91.38
1050,91.56
1049,91.74
1048,91.91
1047,92.05
1046,92.17
1045,92.28
1044,92.37
1043,92.43
1042,92.47
1041,92.5
1040,92.5
1039,92.49
1038,92.45
1037,92.4
1036,92.33
1035,92.23
1034,92.12
1033,92.01
1032,91.91
1031,91.82
1030,91.76
1029,91.73
1028,91.74
1027,91.77
1026,91.83
1025,91.89
1024,91.95
1023,92.01
1022,92.06
1021,92.11
1020,92.15
1019,92.17
1018,92.18
1017,92.18
1016,92.18
1015,92.18
1014,92.18
1013,92.17
1012,92.16
1011,92.12
1010,92.07
1009,92
1008,91.91
1007,91.8
1006,91.66
1005,91.52
1004,91.36
1003,91.21
1002,91.06
1001,90.93
1000,90.83
999,90.73
998,90.66
997,90.6
996,90.55
995,90.48
994,90.39
993,90.28
992,90.13
991,89.95
990,89.74
989,89.53
988,89.3
987,89.08
986,88.85
985,88.62
984,88.36
983,88.06
982,87.72
981,87.32
980,86.86
979,86.35
978,85.84
977,85.38
976,85.03
975,84.87
974,84.9
973,85.12
972,85.48
971,85.94
970,86.44
969,86.93
968,87.38
967,87.76
966,88.08
965,88.34
964,88.54
963,88.71
962,88.86
961,89.03
960,89.23
959,89.46
958,89.74
957,90.04
956,90.34
955,90.61
954,90.85
953,91.05
952,91.23
951,91.4
950,91.56
949,91.73
948,91.9
947,92.06
946,92.21
945,92.35
944,92.48
943,92.57
942,92.65
941,92.69
940,92.71
939,92.7
938,92.66
937,92.59
936,92.5
935,92.39
934,92.27
933,92.15
932,92.05
931,91.97
930,91.93
929,91.94
928,92
927,92.08
926,92.18
925,92.28
924,92.37
923,92.42
922,92.46
921,92.48
920,92.5
919,92.51
918,92.51
917,92.52
916,92.53
915,92.54
914,92.55
913,92.58
912,92.63
911,92.69
910,92.76
909,92.83
908,92.91
907,92.99
906,93.07
905,93.16
904,93.25
903,93.31
902,93.36
901,93.4
900,93.44
899,93.48
898,93.5
897,93.51
896,93.52
895,93.52
894,93.52
893,93.53
892,93.55
891,93.56
890,93.56
889,93.57
888,93.58
887,93.59
886,93.61
885,93.63
884,93.66
883,93.69
882,93.73
881,93.76
880,93.79
879,93.81
878,93.81
877,93.81
876,93.81
875,93.82
874,93.82
873,93.83
872,93.84
871,93.84
870,93.84
869,93.84
868,93.84
867,93.84
866,93.84
865,93.84
864,93.83
863,93.82
862,93.8
861,93.79
860,93.77
859,93.74
858,93.71
857,93.67
856,93.63
855,93.57
854,93.51
853,93.45
852,93.39
851,93.32
850,93.24
849,93.16
848,93.08
847,92.99
846,92.89
845,92.78
844,92.66
843,92.54
842,92.41
841,92.28
840,92.15
839,91.99
838,91.82
837,91.65
836,91.49
835,91.34
834,91.24
833,91.17
832,91.15
831,91.15
830,91.17
829,91.18
828,91.19
827,91.17
826,91.14
825,91.1
824,91.06
823,90.99
822,90.91
821,90.83
820,90.75
819,90.65
818,90.55
817,90.44
816,90.34
815,90.23
814,90.11
813,89.97
812,89.82
811,89.67
810,89.51
809,89.36
808,89.2
807,89.03
806,88.86
805,88.7
804,88.52
803,88.34
802,88.16
801,87.97
800,87.77
799,87.57
798,87.36
797,87.16
796,86.94
795,86.7
794,86.46
793,86.22
792,85.97
791,85.74
790,85.49
789,85.24
788,84.97
787,84.7
786,84.43
785,84.17
784,83.9
783,83.62
782,83.36
781,83.1
780,82.85
779,82.62
778,82.42
777,82.25
776,82.1
775,81.98
774,81.87
773,81.79
772,81.69
771,81.59
770,81.49
769,81.36
768,81.21
767,81.03
766,80.85
765,80.65
764,80.42
763,80.16
762,79.88
761,79.57
760,79.21
759,78.82
758,78.41
757,77.98
756,77.53
755,77.07
754,76.6
753,76.13
752,75.65
751,75.17
750,74.72
749,74.28
748,73.86
747,73.45
746,73.09
745,72.74
744,72.4
743,72.08
742,71.77
741,71.45
740,71.09
739,70.7
738,70.25
737,69.69
736,69
735,68.17
734,67.23
733,66.2
732,65.14
731,64.19
730,63.45
729,62.97
728,62.75
727,62.75
726,62.9
725,63.1
724,63.24
723,63.29
722,63.24
721,63.08
720,62.83
719,62.53
718,62.23
717,61.92
716,61.58
715,61.25
714,60.95
713,60.67
712,60.41
711,60.17
710,59.98
709,59.81
708,59.66
707,59.54
706,59.45
705,59.36
704,59.24
703,59.11
702,59
701,58.88
700,58.74
699,58.59
698,58.46
697,58.34
696,58.22
695,58.12
694,58.07
693,58.03
692,58
691,58
690,68.06
689,58.14
688,58.24
687,58.38
686,58.57
685,58.77
684,58.96
683,59.17
682,59.43
681,59.71
680,60
679,60.3
678,60.63
677,60.96
676,61.28
675,61.62
674,61.98
673,62.34
672,62.69
671,63.43
670,63.43
669,63.89
668,64.33
667,64.64
666,64.88
665,65.92
664,65.38
663,65.67
662,65.99
661,66.32
660,66.63
659,66.94
658,67.26
657,67.55
656,67.8
655,68.03
654,68.25
653,68.43
652,68.56
651,68.68
650,68.81
